# Temperatura_=_-2.815625
# Concentracion g/m^3_=_19900.0
# C_Vs_to_Am_M_A/Vsm_=_254322799225.57578
# pendiente_HvsI_1/m_=_3716.3
# ordenada_HvsI_A/m_=_1297.0
# frecuencia_Hz_=_268406.84927623096
# Promedio de 160 ciclos

Tiempo_(s)	Campo_(V.s)	Magnetizacion_(V.s)	Campo_(kA/m)	Magnetizacion_(A/m)
0.000000e+00	-1.101309e-08	-4.382414e-09	-5.688866e+01	-1.113719e+03
1.000000e-08	-1.100927e-08	-4.380721e-09	-5.686890e+01	-1.113646e+03
2.000000e-08	-1.100257e-08	-4.379599e-09	-5.683432e+01	-1.113526e+03
3.000000e-08	-1.099285e-08	-4.379561e-09	-5.678409e+01	-1.113354e+03
4.000000e-08	-1.097989e-08	-4.376987e-09	-5.671713e+01	-1.113116e+03
5.000000e-08	-1.096367e-08	-4.374814e-09	-5.663334e+01	-1.112797e+03
6.000000e-08	-1.094456e-08	-4.375978e-09	-5.653463e+01	-1.112376e+03
7.000000e-08	-1.092288e-08	-4.378307e-09	-5.642264e+01	-1.111838e+03
8.000000e-08	-1.089824e-08	-4.371837e-09	-5.629538e+01	-1.111173e+03
9.000000e-08	-1.087013e-08	-4.348502e-09	-5.615018e+01	-1.110385e+03
1.000000e-07	-1.083833e-08	-4.349067e-09	-5.598590e+01	-1.109493e+03
1.100000e-07	-1.080302e-08	-4.374333e-09	-5.580350e+01	-1.108534e+03
1.200000e-07	-1.076465e-08	-4.356960e-09	-5.560529e+01	-1.107558e+03
1.300000e-07	-1.072367e-08	-4.338944e-09	-5.539360e+01	-1.106625e+03
1.400000e-07	-1.068030e-08	-4.372875e-09	-5.516960e+01	-1.105785e+03
1.500000e-07	-1.063432e-08	-4.354403e-09	-5.493206e+01	-1.105071e+03
1.600000e-07	-1.058520e-08	-4.324832e-09	-5.467832e+01	-1.104488e+03
1.700000e-07	-1.053301e-08	-4.366103e-09	-5.440874e+01	-1.104003e+03
1.800000e-07	-1.047779e-08	-4.345300e-09	-5.412351e+01	-1.103552e+03
1.900000e-07	-1.041949e-08	-4.316633e-09	-5.382238e+01	-1.103046e+03
2.000000e-07	-1.035858e-08	-4.366036e-09	-5.350774e+01	-1.102393e+03
2.100000e-07	-1.029496e-08	-4.350678e-09	-5.317908e+01	-1.101508e+03
2.200000e-07	-1.022846e-08	-4.316357e-09	-5.283560e+01	-1.100339e+03
2.300000e-07	-1.015908e-08	-4.344595e-09	-5.247721e+01	-1.098866e+03
2.400000e-07	-1.008648e-08	-4.333805e-09	-5.210218e+01	-1.097107e+03
2.500000e-07	-1.001074e-08	-4.300961e-09	-5.171095e+01	-1.095103e+03
2.600000e-07	-9.931913e-09	-4.301834e-09	-5.130375e+01	-1.092911e+03
2.700000e-07	-9.850175e-09	-4.298284e-09	-5.088153e+01	-1.090581e+03
2.800000e-07	-9.765935e-09	-4.278628e-09	-5.044638e+01	-1.088151e+03
2.900000e-07	-9.679096e-09	-4.280002e-09	-4.999781e+01	-1.085636e+03
3.000000e-07	-9.589459e-09	-4.277071e-09	-4.953478e+01	-1.083036e+03
3.100000e-07	-9.496966e-09	-4.253701e-09	-4.905701e+01	-1.080335e+03
3.200000e-07	-9.401663e-09	-4.243778e-09	-4.856471e+01	-1.077519e+03
3.300000e-07	-9.303544e-09	-4.229101e-09	-4.805787e+01	-1.074576e+03
3.400000e-07	-9.202705e-09	-4.216481e-09	-4.753698e+01	-1.071502e+03
3.500000e-07	-9.099251e-09	-4.209852e-09	-4.700259e+01	-1.068299e+03
3.600000e-07	-8.993066e-09	-4.192288e-09	-4.645408e+01	-1.064972e+03
3.700000e-07	-8.884208e-09	-4.181445e-09	-4.589176e+01	-1.061522e+03
3.800000e-07	-8.772675e-09	-4.173391e-09	-4.531564e+01	-1.057947e+03
3.900000e-07	-8.658336e-09	-4.154363e-09	-4.472501e+01	-1.054236e+03
4.000000e-07	-8.541257e-09	-4.132632e-09	-4.412023e+01	-1.050378e+03
4.100000e-07	-8.421661e-09	-4.118063e-09	-4.350245e+01	-1.046362e+03
4.200000e-07	-8.299693e-09	-4.101588e-09	-4.287242e+01	-1.042184e+03
4.300000e-07	-8.175339e-09	-4.085522e-09	-4.223007e+01	-1.037847e+03
4.400000e-07	-8.048645e-09	-4.074373e-09	-4.157562e+01	-1.033358e+03
4.500000e-07	-7.919689e-09	-4.055317e-09	-4.090949e+01	-1.028726e+03
4.600000e-07	-7.788490e-09	-4.032890e-09	-4.023178e+01	-1.023954e+03
4.700000e-07	-7.655108e-09	-4.012822e-09	-3.954278e+01	-1.019038e+03
4.800000e-07	-7.519571e-09	-3.990529e-09	-3.884266e+01	-1.013964e+03
4.900000e-07	-7.381818e-09	-3.968040e-09	-3.813109e+01	-1.008715e+03
5.000000e-07	-7.241851e-09	-3.948739e-09	-3.740809e+01	-1.003273e+03
5.100000e-07	-7.099737e-09	-3.928391e-09	-3.667399e+01	-9.976241e+02
5.200000e-07	-6.955585e-09	-3.905921e-09	-3.592937e+01	-9.917635e+02
5.300000e-07	-6.809553e-09	-3.883541e-09	-3.517503e+01	-9.856925e+02
5.400000e-07	-6.661776e-09	-3.857726e-09	-3.441168e+01	-9.794158e+02
5.500000e-07	-6.512277e-09	-3.828855e-09	-3.363943e+01	-9.729354e+02
5.600000e-07	-6.361006e-09	-3.800375e-09	-3.285803e+01	-9.662460e+02
5.700000e-07	-6.207937e-09	-3.772683e-09	-3.206735e+01	-9.593329e+02
5.800000e-07	-6.053042e-09	-3.746044e-09	-3.126723e+01	-9.521737e+02
5.900000e-07	-5.896442e-09	-3.719795e-09	-3.045830e+01	-9.447425e+02
6.000000e-07	-5.738301e-09	-3.690901e-09	-2.964142e+01	-9.370157e+02
6.100000e-07	-5.578594e-09	-3.658396e-09	-2.881644e+01	-9.289763e+02
6.200000e-07	-5.417277e-09	-3.623688e-09	-2.798315e+01	-9.206155e+02
6.300000e-07	-5.254342e-09	-3.587608e-09	-2.714150e+01	-9.119304e+02
6.400000e-07	-5.089767e-09	-3.550771e-09	-2.629138e+01	-9.029192e+02
6.500000e-07	-4.923664e-09	-3.513585e-09	-2.543337e+01	-8.935756e+02
6.600000e-07	-4.756164e-09	-3.476398e-09	-2.456814e+01	-8.838850e+02
6.700000e-07	-4.587289e-09	-3.438792e-09	-2.369580e+01	-8.738235e+02
6.800000e-07	-4.417038e-09	-3.398784e-09	-2.281637e+01	-8.633603e+02
6.900000e-07	-4.245435e-09	-3.355688e-09	-2.192994e+01	-8.524620e+02
7.000000e-07	-4.072520e-09	-3.309899e-09	-2.103674e+01	-8.410978e+02
7.100000e-07	-3.898367e-09	-3.261232e-09	-2.013714e+01	-8.292414e+02
7.200000e-07	-3.723069e-09	-3.210696e-09	-1.923163e+01	-8.168707e+02
7.300000e-07	-3.546647e-09	-3.159941e-09	-1.832032e+01	-8.039645e+02
7.400000e-07	-3.369112e-09	-3.108264e-09	-1.740325e+01	-7.904971e+02
7.500000e-07	-3.190513e-09	-3.053746e-09	-1.648069e+01	-7.764340e+02
7.600000e-07	-3.010918e-09	-2.996316e-09	-1.555298e+01	-7.617300e+02
7.700000e-07	-2.830384e-09	-2.936135e-09	-1.462042e+01	-7.463300e+02
7.800000e-07	-2.648982e-09	-2.872221e-09	-1.368339e+01	-7.301728e+02
7.900000e-07	-2.466794e-09	-2.804061e-09	-1.274229e+01	-7.131947e+02
8.000000e-07	-2.283902e-09	-2.732662e-09	-1.179755e+01	-6.953319e+02
8.100000e-07	-2.100379e-09	-2.658387e-09	-1.084955e+01	-6.765198e+02
8.200000e-07	-1.916275e-09	-2.580397e-09	-9.898554e+00	-6.566884e+02
8.300000e-07	-1.731666e-09	-2.498460e-09	-8.944946e+00	-6.357558e+02
8.400000e-07	-1.546654e-09	-2.411769e-09	-7.989256e+00	-6.136215e+02
8.500000e-07	-1.361316e-09	-2.318951e-09	-7.031883e+00	-5.901624e+02
8.600000e-07	-1.175697e-09	-2.219496e-09	-6.073060e+00	-5.652332e+02
8.700000e-07	-9.898393e-10	-2.113785e-09	-5.113002e+00	-5.386708e+02
8.800000e-07	-8.037764e-10	-2.001294e-09	-4.151885e+00	-5.103037e+02
8.900000e-07	-6.175406e-10	-1.880860e-09	-3.189875e+00	-4.799618e+02
9.000000e-07	-4.311979e-10	-1.752269e-09	-2.227313e+00	-4.474876e+02
9.100000e-07	-2.448222e-10	-1.615214e-09	-1.264581e+00	-4.127455e+02
9.200000e-07	-5.845435e-11	-1.468495e-09	-3.018886e-01	-3.756306e+02
9.300000e-07	1.278795e-10	-1.311637e-09	6.606277e-01	-3.360763e+02
9.400000e-07	3.141845e-10	-1.145366e-09	1.622995e+00	-2.940638e+02
9.500000e-07	5.004388e-10	-9.696563e-10	2.585100e+00	-2.496300e+02
9.600000e-07	6.865584e-10	-7.847182e-10	3.546510e+00	-2.028768e+02
9.700000e-07	8.724718e-10	-5.917283e-10	4.506854e+00	-1.539766e+02
9.800000e-07	1.058148e-09	-3.917866e-10	5.465974e+00	-1.031718e+02
9.900000e-07	1.243582e-09	-1.858410e-10	6.423840e+00	-5.076806e+01
1.000000e-06	1.428744e-09	2.488345e-11	7.380307e+00	2.880447e+00
1.010000e-06	1.613588e-09	2.395232e-10	8.335123e+00	5.739017e+01
1.020000e-06	1.798054e-09	4.567980e-10	9.287996e+00	1.123680e+02
1.030000e-06	1.982084e-09	6.740419e-10	1.023861e+01	1.674264e+02
1.040000e-06	2.165619e-09	8.895726e-10	1.118667e+01	2.221909e+02
1.050000e-06	2.348578e-09	1.102473e-09	1.213175e+01	2.762982e+02
1.060000e-06	2.530885e-09	1.310945e-09	1.307347e+01	3.293876e+02
1.070000e-06	2.712483e-09	1.513360e-09	1.401152e+01	3.810920e+02
1.080000e-06	2.893288e-09	1.708765e-09	1.494548e+01	4.310332e+02
1.090000e-06	3.073220e-09	1.896124e-09	1.587492e+01	4.788285e+02
1.100000e-06	3.252251e-09	2.073855e-09	1.679971e+01	5.241104e+02
1.110000e-06	3.430330e-09	2.240760e-09	1.771958e+01	5.665564e+02
1.120000e-06	3.607381e-09	2.395462e-09	1.863415e+01	6.059238e+02
1.130000e-06	3.783346e-09	2.536598e-09	1.954310e+01	6.420795e+02
1.140000e-06	3.958196e-09	2.664344e-09	2.044630e+01	6.750178e+02
1.150000e-06	4.131911e-09	2.779932e-09	2.134364e+01	7.048590e+02
1.160000e-06	4.304419e-09	2.884929e-09	2.223473e+01	7.318298e+02
1.170000e-06	4.475640e-09	2.980393e-09	2.311918e+01	7.562283e+02
1.180000e-06	4.645531e-09	3.067287e-09	2.399676e+01	7.783827e+02
1.190000e-06	4.814040e-09	3.146883e-09	2.486720e+01	7.986113e+02
1.200000e-06	4.981127e-09	3.220133e-09	2.573030e+01	8.171939e+02
1.210000e-06	5.146750e-09	3.287895e-09	2.658583e+01	8.343572e+02
1.220000e-06	5.310839e-09	3.350610e-09	2.743344e+01	8.502747e+02
1.230000e-06	5.473350e-09	3.408007e-09	2.827290e+01	8.650774e+02
1.240000e-06	5.634266e-09	3.460687e-09	2.910412e+01	8.788688e+02
1.250000e-06	5.793571e-09	3.510250e-09	2.992702e+01	8.917392e+02
1.260000e-06	5.951249e-09	3.557722e-09	3.074151e+01	9.037738e+02
1.270000e-06	6.107214e-09	3.602733e-09	3.154716e+01	9.150553e+02
1.280000e-06	6.261357e-09	3.644757e-09	3.234339e+01	9.256607e+02
1.290000e-06	6.413635e-09	3.684046e-09	3.312999e+01	9.356576e+02
1.300000e-06	6.564055e-09	3.721084e-09	3.390699e+01	9.451003e+02
1.310000e-06	6.712656e-09	3.755948e-09	3.467459e+01	9.540305e+02
1.320000e-06	6.859424e-09	3.788718e-09	3.543273e+01	9.624802e+02
1.330000e-06	7.004297e-09	3.819560e-09	3.618108e+01	9.704774e+02
1.340000e-06	7.147197e-09	3.848827e-09	3.691924e+01	9.780498e+02
1.350000e-06	7.288024e-09	3.877151e-09	3.764668e+01	9.852274e+02
1.360000e-06	7.426713e-09	3.904459e-09	3.836308e+01	9.920419e+02
1.370000e-06	7.563253e-09	3.930403e-09	3.906839e+01	9.985237e+02
1.380000e-06	7.697697e-09	3.954753e-09	3.976287e+01	1.004698e+03
1.390000e-06	7.830070e-09	3.977458e-09	4.044664e+01	1.010585e+03
1.400000e-06	7.960294e-09	3.999112e-09	4.111932e+01	1.016196e+03
1.410000e-06	8.088310e-09	4.020377e-09	4.178059e+01	1.021542e+03
1.420000e-06	8.214139e-09	4.040884e-09	4.243057e+01	1.026632e+03
1.430000e-06	8.337761e-09	4.059948e-09	4.306915e+01	1.031480e+03
1.440000e-06	8.459056e-09	4.077966e-09	4.369570e+01	1.036105e+03
1.450000e-06	8.577934e-09	4.095490e-09	4.430977e+01	1.040526e+03
1.460000e-06	8.694276e-09	4.112469e-09	4.491074e+01	1.044766e+03
1.470000e-06	8.807949e-09	4.128781e-09	4.549792e+01	1.048839e+03
1.480000e-06	8.919008e-09	4.144068e-09	4.607160e+01	1.052755e+03
1.490000e-06	9.027585e-09	4.158192e-09	4.663246e+01	1.056517e+03
1.500000e-06	9.133620e-09	4.171969e-09	4.718019e+01	1.060125e+03
1.510000e-06	9.237006e-09	4.185918e-09	4.771423e+01	1.063577e+03
1.520000e-06	9.337730e-09	4.199420e-09	4.823452e+01	1.066876e+03
1.530000e-06	9.435684e-09	4.211835e-09	4.874051e+01	1.070030e+03
1.540000e-06	9.530834e-09	4.223475e-09	4.923201e+01	1.073053e+03
1.550000e-06	9.623312e-09	4.235037e-09	4.970971e+01	1.075956e+03
1.560000e-06	9.713072e-09	4.246437e-09	5.017337e+01	1.078750e+03
1.570000e-06	9.800088e-09	4.257055e-09	5.062285e+01	1.081439e+03
1.580000e-06	9.884437e-09	4.266883e-09	5.105856e+01	1.084019e+03
1.590000e-06	9.965993e-09	4.276342e-09	5.147984e+01	1.086483e+03
1.600000e-06	1.004463e-08	4.285810e-09	5.188602e+01	1.088822e+03
1.610000e-06	1.012025e-08	4.295421e-09	5.227669e+01	1.091033e+03
1.620000e-06	1.019287e-08	4.304662e-09	5.265179e+01	1.093120e+03
1.630000e-06	1.026266e-08	4.312955e-09	5.301227e+01	1.095096e+03
1.640000e-06	1.032959e-08	4.320364e-09	5.335800e+01	1.096974e+03
1.650000e-06	1.039358e-08	4.327317e-09	5.368855e+01	1.098769e+03
1.660000e-06	1.045479e-08	4.334019e-09	5.400476e+01	1.100491e+03
1.670000e-06	1.051318e-08	4.340403e-09	5.430634e+01	1.102138e+03
1.680000e-06	1.056861e-08	4.346261e-09	5.459266e+01	1.103701e+03
1.690000e-06	1.062085e-08	4.351920e-09	5.486251e+01	1.105166e+03
1.700000e-06	1.066971e-08	4.357826e-09	5.511493e+01	1.106521e+03
1.710000e-06	1.071553e-08	4.363502e-09	5.535158e+01	1.107760e+03
1.720000e-06	1.075843e-08	4.368286e-09	5.557318e+01	1.108885e+03
1.730000e-06	1.079832e-08	4.371850e-09	5.577927e+01	1.109908e+03
1.740000e-06	1.083533e-08	4.374646e-09	5.597044e+01	1.110846e+03
1.750000e-06	1.086942e-08	4.377632e-09	5.614652e+01	1.111715e+03
1.760000e-06	1.090051e-08	4.380908e-09	5.630712e+01	1.112527e+03
1.770000e-06	1.092871e-08	4.383905e-09	5.645277e+01	1.113283e+03
1.780000e-06	1.095385e-08	4.386354e-09	5.658263e+01	1.113975e+03
1.790000e-06	1.097593e-08	4.388591e-09	5.669668e+01	1.114590e+03
1.800000e-06	1.099509e-08	4.390515e-09	5.679568e+01	1.115113e+03
1.810000e-06	1.101115e-08	4.391695e-09	5.687861e+01	1.115533e+03
1.820000e-06	1.102389e-08	4.392216e-09	5.694442e+01	1.115848e+03
1.830000e-06	1.103326e-08	4.392347e-09	5.699281e+01	1.116062e+03
1.840000e-06	1.103945e-08	4.392610e-09	5.702479e+01	1.116186e+03
1.850000e-06	1.104257e-08	4.393038e-09	5.704094e+01	1.116236e+03
1.860000e-06	1.104258e-08	4.392761e-09	5.704095e+01	1.116227e+03
1.870000e-06	1.103962e-08	4.393352e-09	5.702568e+01	1.116167e+03
1.880000e-06	1.103368e-08	4.393944e-09	5.699502e+01	1.116061e+03
1.890000e-06	1.102472e-08	4.391729e-09	5.694874e+01	1.115905e+03
1.900000e-06	1.101265e-08	4.389977e-09	5.688637e+01	1.115688e+03
1.910000e-06	1.099742e-08	4.389971e-09	5.680769e+01	1.115395e+03
1.920000e-06	1.097941e-08	4.386358e-09	5.671466e+01	1.115005e+03
1.930000e-06	1.095868e-08	4.377503e-09	5.660761e+01	1.114503e+03
1.940000e-06	1.093497e-08	4.387928e-09	5.648510e+01	1.113875e+03
1.950000e-06	1.090777e-08	4.409432e-09	5.634459e+01	1.113121e+03
1.960000e-06	1.087638e-08	4.383320e-09	5.618243e+01	1.112257e+03
1.970000e-06	1.084098e-08	4.358339e-09	5.599961e+01	1.111312e+03
1.980000e-06	1.080249e-08	4.379967e-09	5.580075e+01	1.110336e+03
1.990000e-06	1.076183e-08	4.356013e-09	5.559073e+01	1.109384e+03
2.000000e-06	1.071958e-08	4.350686e-09	5.537248e+01	1.108512e+03
2.010000e-06	1.067492e-08	4.376352e-09	5.514179e+01	1.107760e+03
2.020000e-06	1.062707e-08	4.335914e-09	5.489463e+01	1.107140e+03
2.030000e-06	1.057638e-08	4.348446e-09	5.463277e+01	1.106632e+03
2.040000e-06	1.052241e-08	4.371473e-09	5.435399e+01	1.106179e+03
2.050000e-06	1.046508e-08	4.315638e-09	5.405785e+01	1.105699e+03
2.060000e-06	1.040507e-08	4.331973e-09	5.374790e+01	1.105098e+03
2.070000e-06	1.034207e-08	4.349525e-09	5.342242e+01	1.104288e+03
2.080000e-06	1.027621e-08	4.303031e-09	5.308224e+01	1.103205e+03
2.090000e-06	1.020751e-08	4.313479e-09	5.272734e+01	1.101821e+03
2.100000e-06	1.013564e-08	4.321446e-09	5.235609e+01	1.100141e+03
2.110000e-06	1.006088e-08	4.311238e-09	5.196993e+01	1.098203e+03
2.120000e-06	9.982937e-09	4.298293e-09	5.156732e+01	1.096060e+03
2.130000e-06	9.902031e-09	4.292040e-09	5.114940e+01	1.093766e+03
2.140000e-06	9.818508e-09	4.285734e-09	5.071795e+01	1.091363e+03
2.150000e-06	9.732026e-09	4.252300e-09	5.027122e+01	1.088872e+03
2.160000e-06	9.642750e-09	4.257143e-09	4.981006e+01	1.086297e+03
2.170000e-06	9.550732e-09	4.252427e-09	4.933474e+01	1.083628e+03
2.180000e-06	9.455957e-09	4.240939e-09	4.884517e+01	1.080847e+03
2.190000e-06	9.358526e-09	4.233768e-09	4.834188e+01	1.077941e+03
2.200000e-06	9.258353e-09	4.209883e-09	4.782444e+01	1.074905e+03
2.210000e-06	9.155456e-09	4.207438e-09	4.729292e+01	1.071739e+03
2.220000e-06	9.049796e-09	4.188010e-09	4.674712e+01	1.068448e+03
2.230000e-06	8.941540e-09	4.170315e-09	4.618792e+01	1.065034e+03
2.240000e-06	8.830708e-09	4.159521e-09	4.561541e+01	1.061497e+03
2.250000e-06	8.717145e-09	4.146144e-09	4.502880e+01	1.057827e+03
2.260000e-06	8.600873e-09	4.137605e-09	4.442819e+01	1.054012e+03
2.270000e-06	8.481850e-09	4.121775e-09	4.381337e+01	1.050043e+03
2.280000e-06	8.360294e-09	4.106294e-09	4.318547e+01	1.045912e+03
2.290000e-06	8.236358e-09	4.080338e-09	4.254527e+01	1.041621e+03
2.300000e-06	8.110048e-09	4.061515e-09	4.189280e+01	1.037175e+03
2.310000e-06	7.981488e-09	4.046384e-09	4.122872e+01	1.032584e+03
2.320000e-06	7.850764e-09	4.028981e-09	4.055346e+01	1.027854e+03
2.330000e-06	7.717971e-09	4.013216e-09	3.986751e+01	1.022980e+03
2.340000e-06	7.583056e-09	3.993559e-09	3.917060e+01	1.017954e+03
2.350000e-06	7.445926e-09	3.973385e-09	3.846224e+01	1.012758e+03
2.360000e-06	7.306525e-09	3.951407e-09	3.774217e+01	1.007374e+03
2.370000e-06	7.164972e-09	3.928645e-09	3.701097e+01	1.001786e+03
2.380000e-06	7.021448e-09	3.902978e-09	3.626959e+01	9.959873e+02
2.390000e-06	6.876097e-09	3.880000e-09	3.551877e+01	9.899772e+02
2.400000e-06	6.728992e-09	3.857791e-09	3.475889e+01	9.837601e+02
2.410000e-06	6.580054e-09	3.835284e-09	3.398954e+01	9.773392e+02
2.420000e-06	6.429240e-09	3.811392e-09	3.321050e+01	9.707118e+02
2.430000e-06	6.276577e-09	3.782748e-09	3.242191e+01	9.638659e+02
2.440000e-06	6.122158e-09	3.751691e-09	3.162425e+01	9.567811e+02
2.450000e-06	5.966003e-09	3.721579e-09	3.081763e+01	9.494319e+02
2.460000e-06	5.808223e-09	3.692988e-09	3.000261e+01	9.417934e+02
2.470000e-06	5.648855e-09	3.663259e-09	2.917938e+01	9.338465e+02
2.480000e-06	5.487809e-09	3.632171e-09	2.834749e+01	9.255799e+02
2.490000e-06	5.325116e-09	3.598685e-09	2.750709e+01	9.169895e+02
2.500000e-06	5.160848e-09	3.564233e-09	2.665856e+01	9.080737e+02
2.510000e-06	4.995090e-09	3.528068e-09	2.580233e+01	8.988282e+02
2.520000e-06	4.827905e-09	3.489059e-09	2.493872e+01	8.892409e+02
2.530000e-06	4.659303e-09	3.448390e-09	2.406780e+01	8.792905e+02
2.540000e-06	4.489335e-09	3.407564e-09	2.318982e+01	8.689479e+02
2.550000e-06	4.318071e-09	3.366688e-09	2.230514e+01	8.581799e+02
2.560000e-06	4.145539e-09	3.324839e-09	2.141392e+01	8.469546e+02
2.570000e-06	3.971795e-09	3.280429e-09	2.051644e+01	8.352442e+02
2.580000e-06	3.796919e-09	3.231851e-09	1.961311e+01	8.230257e+02
2.590000e-06	3.620919e-09	3.180127e-09	1.870397e+01	8.102781e+02
2.600000e-06	3.443737e-09	3.126926e-09	1.778873e+01	7.969776e+02
2.610000e-06	3.265395e-09	3.072567e-09	1.686750e+01	7.830925e+02
2.620000e-06	3.085996e-09	3.015810e-09	1.594081e+01	7.685807e+02
2.630000e-06	2.905654e-09	2.956572e-09	1.500924e+01	7.533900e+02
2.640000e-06	2.724485e-09	2.895044e-09	1.407341e+01	7.374603e+02
2.650000e-06	2.542515e-09	2.830132e-09	1.313344e+01	7.207284e+02
2.660000e-06	2.359785e-09	2.760883e-09	1.218953e+01	7.031304e+02
2.670000e-06	2.176380e-09	2.687286e-09	1.124215e+01	6.846022e+02
2.680000e-06	1.992373e-09	2.609543e-09	1.029165e+01	6.650761e+02
2.690000e-06	1.807867e-09	2.528216e-09	9.338577e+00	6.444744e+02
2.700000e-06	1.622933e-09	2.443990e-09	8.383289e+00	6.227025e+02
2.710000e-06	1.437611e-09	2.355814e-09	7.425997e+00	5.996441e+02
2.720000e-06	1.251954e-09	2.261284e-09	6.466973e+00	5.751602e+02
2.730000e-06	1.066009e-09	2.158976e-09	5.506465e+00	5.490921e+02
2.740000e-06	8.798081e-10	2.049008e-09	4.544634e+00	5.212697e+02
2.750000e-06	6.934248e-10	1.931759e-09	3.581861e+00	4.915213e+02
2.760000e-06	5.069443e-10	1.807301e-09	2.618586e+00	4.596847e+02
2.770000e-06	3.204208e-10	1.675046e-09	1.655089e+00	4.256171e+02
2.780000e-06	1.338792e-10	1.533702e-09	6.914988e-01	3.892036e+02
2.790000e-06	-5.266791e-11	1.382510e-09	-2.721197e-01	3.503658e+02
2.800000e-06	-2.391931e-10	1.221502e-09	-1.235625e+00	3.090698e+02
2.810000e-06	-4.256686e-10	1.050322e-09	-2.198874e+00	2.653353e+02
2.820000e-06	-6.120332e-10	8.689249e-10	-3.161550e+00	2.192447e+02
2.830000e-06	-7.982054e-10	6.782829e-10	-4.123232e+00	1.709493e+02
2.840000e-06	-9.841253e-10	4.803373e-10	-5.083612e+00	1.206715e+02
2.850000e-06	-1.169772e-09	2.770913e-10	-6.042582e+00	6.869974e+01
2.860000e-06	-1.355144e-09	6.946485e-11	-7.000127e+00	1.537584e+01
2.870000e-06	-1.540183e-09	-1.426422e-10	-7.955960e+00	-3.892309e+01
2.880000e-06	-1.724806e-09	-3.586598e-10	-8.909640e+00	-9.380483e+01
2.890000e-06	-1.908953e-09	-5.763566e-10	-9.860859e+00	-1.488791e+02
2.900000e-06	-2.092569e-09	-7.929143e-10	-1.080933e+01	-2.037674e+02
2.910000e-06	-2.275626e-09	-1.006668e-09	-1.175492e+01	-2.581037e+02
2.920000e-06	-2.458091e-09	-1.216677e-09	-1.269745e+01	-3.115278e+02
2.930000e-06	-2.639874e-09	-1.421324e-09	-1.363646e+01	-3.636752e+02
2.940000e-06	-2.820897e-09	-1.619107e-09	-1.457155e+01	-4.141707e+02
2.950000e-06	-3.001066e-09	-1.809340e-09	-1.550221e+01	-4.626315e+02
