# Temperatura_=_-1.1331395348837205
# Concentracion g/m^3_=_19900.0
# C_Vs_to_Am_M_A/Vsm_=_254322799225.57578
# pendiente_HvsI_1/m_=_3716.3
# ordenada_HvsI_A/m_=_1297.0
# frecuencia_Hz_=_268350.22764894797
# Promedio de 172 ciclos

Tiempo_(s)	Campo_(V.s)	Magnetizacion_(V.s)	Campo_(kA/m)	Magnetizacion_(A/m)
0.000000e+00	-1.099226e-08	-3.914184e-09	-5.691564e+01	-9.957955e+02
1.000000e-08	-1.099025e-08	-3.914136e-09	-5.690524e+01	-9.956817e+02
2.000000e-08	-1.098527e-08	-3.911900e-09	-5.687946e+01	-9.955115e+02
3.000000e-08	-1.097738e-08	-3.910912e-09	-5.683863e+01	-9.952942e+02
4.000000e-08	-1.096638e-08	-3.911693e-09	-5.678166e+01	-9.950341e+02
5.000000e-08	-1.095210e-08	-3.909781e-09	-5.670772e+01	-9.947272e+02
6.000000e-08	-1.093469e-08	-3.907799e-09	-5.661760e+01	-9.943597e+02
7.000000e-08	-1.091460e-08	-3.908493e-09	-5.651354e+01	-9.939104e+02
8.000000e-08	-1.089183e-08	-3.909895e-09	-5.639568e+01	-9.933566e+02
9.000000e-08	-1.086589e-08	-3.905680e-09	-5.626133e+01	-9.926832e+02
1.000000e-07	-1.083635e-08	-3.885731e-09	-5.610841e+01	-9.918919e+02
1.100000e-07	-1.080320e-08	-3.883973e-09	-5.593676e+01	-9.910078e+02
1.200000e-07	-1.076672e-08	-3.908422e-09	-5.574788e+01	-9.900801e+02
1.300000e-07	-1.072741e-08	-3.894172e-09	-5.554431e+01	-9.891743e+02
1.400000e-07	-1.068563e-08	-3.871829e-09	-5.532800e+01	-9.883587e+02
1.500000e-07	-1.064143e-08	-3.905046e-09	-5.509915e+01	-9.876859e+02
1.600000e-07	-1.059439e-08	-3.894181e-09	-5.485555e+01	-9.871759e+02
1.700000e-07	-1.054423e-08	-3.854571e-09	-5.459584e+01	-9.868057e+02
1.800000e-07	-1.049114e-08	-3.894216e-09	-5.432095e+01	-9.865092e+02
1.900000e-07	-1.043493e-08	-3.883195e-09	-5.402990e+01	-9.861881e+02
2.000000e-07	-1.037584e-08	-3.839606e-09	-5.372395e+01	-9.857322e+02
2.100000e-07	-1.031417e-08	-3.884999e-09	-5.340467e+01	-9.850433e+02
2.200000e-07	-1.024964e-08	-3.879850e-09	-5.307055e+01	-9.840563e+02
2.300000e-07	-1.018230e-08	-3.833901e-09	-5.272184e+01	-9.827513e+02
2.400000e-07	-1.011195e-08	-3.861775e-09	-5.235762e+01	-9.811532e+02
2.500000e-07	-1.003841e-08	-3.863652e-09	-5.197682e+01	-9.793203e+02
2.600000e-07	-9.961822e-09	-3.825086e-09	-5.158027e+01	-9.773243e+02
2.700000e-07	-9.882154e-09	-3.826387e-09	-5.116777e+01	-9.752299e+02
2.800000e-07	-9.799697e-09	-3.831934e-09	-5.074082e+01	-9.730780e+02
2.900000e-07	-9.714715e-09	-3.807633e-09	-5.030080e+01	-9.708794e+02
3.000000e-07	-9.627041e-09	-3.802719e-09	-4.984684e+01	-9.686186e+02
3.100000e-07	-9.536534e-09	-3.807552e-09	-4.937822e+01	-9.662650e+02
3.200000e-07	-9.443180e-09	-3.785892e-09	-4.889485e+01	-9.637882e+02
3.300000e-07	-9.347022e-09	-3.772502e-09	-4.839696e+01	-9.611703e+02
3.400000e-07	-9.248072e-09	-3.765842e-09	-4.788462e+01	-9.584111e+02
3.500000e-07	-9.146467e-09	-3.754468e-09	-4.735853e+01	-9.555266e+02
3.600000e-07	-9.042183e-09	-3.744074e-09	-4.681857e+01	-9.525395e+02
3.700000e-07	-8.935135e-09	-3.731471e-09	-4.626430e+01	-9.494692e+02
3.800000e-07	-8.825417e-09	-3.721030e-09	-4.569620e+01	-9.463225e+02
3.900000e-07	-8.712987e-09	-3.709450e-09	-4.511406e+01	-9.430905e+02
4.000000e-07	-8.597793e-09	-3.694760e-09	-4.451761e+01	-9.397523e+02
4.100000e-07	-8.479972e-09	-3.678791e-09	-4.390756e+01	-9.362828e+02
4.200000e-07	-8.359703e-09	-3.664725e-09	-4.328483e+01	-9.326621e+02
4.300000e-07	-8.237031e-09	-3.649560e-09	-4.264966e+01	-9.288824e+02
4.400000e-07	-8.111995e-09	-3.634507e-09	-4.200225e+01	-9.249490e+02
4.500000e-07	-7.984685e-09	-3.622223e-09	-4.134307e+01	-9.208767e+02
4.600000e-07	-7.855128e-09	-3.605211e-09	-4.067225e+01	-9.166812e+02
4.700000e-07	-7.723363e-09	-3.586268e-09	-3.998999e+01	-9.123715e+02
4.800000e-07	-7.589468e-09	-3.569145e-09	-3.929671e+01	-9.079442e+02
4.900000e-07	-7.453441e-09	-3.550550e-09	-3.859239e+01	-9.033839e+02
5.000000e-07	-7.315270e-09	-3.530725e-09	-3.787697e+01	-8.986677e+02
5.100000e-07	-7.174958e-09	-3.513017e-09	-3.715047e+01	-8.937735e+02
5.200000e-07	-7.032516e-09	-3.495097e-09	-3.641293e+01	-8.886865e+02
5.300000e-07	-6.888082e-09	-3.474379e-09	-3.566508e+01	-8.834035e+02
5.400000e-07	-6.741818e-09	-3.453495e-09	-3.490776e+01	-8.779309e+02
5.500000e-07	-6.593803e-09	-3.431215e-09	-3.414136e+01	-8.722792e+02
5.600000e-07	-6.444031e-09	-3.406701e-09	-3.336588e+01	-8.664551e+02
5.700000e-07	-6.292507e-09	-3.382488e-09	-3.258131e+01	-8.604549e+02
5.800000e-07	-6.139238e-09	-3.358687e-09	-3.178772e+01	-8.542623e+02
5.900000e-07	-5.984226e-09	-3.334482e-09	-3.098510e+01	-8.478506e+02
6.000000e-07	-5.827532e-09	-3.309712e-09	-3.017377e+01	-8.411900e+02
6.100000e-07	-5.669212e-09	-3.283047e-09	-2.935402e+01	-8.342546e+02
6.200000e-07	-5.509272e-09	-3.254008e-09	-2.852589e+01	-8.270289e+02
6.300000e-07	-5.347729e-09	-3.223903e-09	-2.768945e+01	-8.195087e+02
6.400000e-07	-5.184602e-09	-3.192946e-09	-2.684481e+01	-8.116979e+02
6.500000e-07	-5.019914e-09	-3.161055e-09	-2.599209e+01	-8.036012e+02
6.600000e-07	-4.853742e-09	-3.128615e-09	-2.513168e+01	-7.952167e+02
6.700000e-07	-4.686134e-09	-3.095208e-09	-2.426384e+01	-7.865309e+02
6.800000e-07	-4.517095e-09	-3.060363e-09	-2.338860e+01	-7.775181e+02
6.900000e-07	-4.346679e-09	-3.024040e-09	-2.250622e+01	-7.681448e+02
7.000000e-07	-4.174933e-09	-2.986100e-09	-2.161695e+01	-7.583771e+02
7.100000e-07	-4.001885e-09	-2.946114e-09	-2.072094e+01	-7.481869e+02
7.200000e-07	-3.827612e-09	-2.903869e-09	-1.981859e+01	-7.375560e+02
7.300000e-07	-3.652186e-09	-2.859730e-09	-1.891028e+01	-7.264737e+02
7.400000e-07	-3.475641e-09	-2.814501e-09	-1.799616e+01	-7.149309e+02
7.500000e-07	-3.298017e-09	-2.768072e-09	-1.707646e+01	-7.029114e+02
7.600000e-07	-3.119365e-09	-2.719385e-09	-1.615144e+01	-6.903841e+02
7.700000e-07	-2.939791e-09	-2.667775e-09	-1.522164e+01	-6.772996e+02
7.800000e-07	-2.759372e-09	-2.613042e-09	-1.428747e+01	-6.635922e+02
7.900000e-07	-2.578114e-09	-2.555573e-09	-1.334896e+01	-6.491868e+02
8.000000e-07	-2.396062e-09	-2.495469e-09	-1.240633e+01	-6.340073e+02
8.100000e-07	-2.213318e-09	-2.432379e-09	-1.146011e+01	-6.179837e+02
8.200000e-07	-2.029988e-09	-2.365915e-09	-1.051087e+01	-6.010542e+02
8.300000e-07	-1.846152e-09	-2.295853e-09	-9.559004e+00	-5.831604e+02
8.400000e-07	-1.661872e-09	-2.221900e-09	-8.604844e+00	-5.642374e+02
8.500000e-07	-1.477243e-09	-2.143173e-09	-7.648870e+00	-5.442021e+02
8.600000e-07	-1.292317e-09	-2.058928e-09	-6.691364e+00	-5.229426e+02
8.700000e-07	-1.107111e-09	-1.968849e-09	-5.732405e+00	-5.003140e+02
8.800000e-07	-9.216770e-10	-1.872880e-09	-4.772264e+00	-4.761418e+02
8.900000e-07	-7.360628e-10	-1.770427e-09	-3.811192e+00	-4.502329e+02
9.000000e-07	-5.503134e-10	-1.660473e-09	-2.849420e+00	-4.223922e+02
9.100000e-07	-3.645067e-10	-1.541846e-09	-1.887351e+00	-3.924414e+02
9.200000e-07	-1.786875e-10	-1.413966e-09	-9.252176e-01	-3.602360e+02
9.300000e-07	7.133652e-12	-1.276986e-09	3.692610e-02	-3.256790e+02
9.400000e-07	1.929289e-10	-1.130763e-09	9.989355e-01	-2.887300e+02
9.500000e-07	3.786963e-10	-9.749447e-10	1.960801e+00	-2.494096e+02
9.600000e-07	5.644206e-10	-8.096910e-10	2.922443e+00	-2.078021e+02
9.700000e-07	7.500121e-10	-6.361253e-10	3.883398e+00	-1.640548e+02
9.800000e-07	9.354010e-10	-4.558038e-10	4.843303e+00	-1.183766e+02
9.900000e-07	1.120562e-09	-2.699364e-10	5.802030e+00	-7.103322e+01
1.000000e-06	1.305468e-09	-7.896091e-11	6.759436e+00	-2.234018e+01
1.010000e-06	1.490080e-09	1.162266e-10	7.715316e+00	2.734873e+01
1.020000e-06	1.674387e-09	3.145018e-10	8.669621e+00	7.765508e+01
1.030000e-06	1.858355e-09	5.141888e-10	9.622171e+00	1.281904e+02
1.040000e-06	2.041876e-09	7.126575e-10	1.057240e+01	1.785690e+02
1.050000e-06	2.224860e-09	9.085507e-10	1.151986e+01	2.284158e+02
1.060000e-06	2.407248e-09	1.100994e-09	1.246422e+01	2.773697e+02
1.070000e-06	2.588958e-09	1.287963e-09	1.340508e+01	3.250819e+02
1.080000e-06	2.769901e-09	1.467908e-09	1.434197e+01	3.712131e+02
1.090000e-06	2.950004e-09	1.640566e-09	1.527450e+01	4.154337e+02
1.100000e-06	3.129235e-09	1.805521e-09	1.620252e+01	4.574303e+02
1.110000e-06	3.307564e-09	1.961553e-09	1.712587e+01	4.969200e+02
1.120000e-06	3.484908e-09	2.106888e-09	1.804412e+01	5.336717e+02
1.130000e-06	3.661195e-09	2.239712e-09	1.895690e+01	5.675301e+02
1.140000e-06	3.836392e-09	2.359657e-09	1.986403e+01	5.984358e+02
1.150000e-06	4.010469e-09	2.468095e-09	2.076537e+01	6.264359e+02
1.160000e-06	4.183354e-09	2.566519e-09	2.166053e+01	6.516805e+02
1.170000e-06	4.354954e-09	2.655409e-09	2.254905e+01	6.744043e+02
1.180000e-06	4.525244e-09	2.735497e-09	2.343077e+01	6.948973e+02
1.190000e-06	4.694195e-09	2.808315e-09	2.430557e+01	7.134689e+02
1.200000e-06	4.861755e-09	2.875041e-09	2.517316e+01	7.304140e+02
1.210000e-06	5.027878e-09	2.936506e-09	2.603331e+01	7.459878e+02
1.220000e-06	5.192489e-09	2.993201e-09	2.688563e+01	7.603926e+02
1.230000e-06	5.355523e-09	3.045326e-09	2.772979e+01	7.737774e+02
1.240000e-06	5.516981e-09	3.093258e-09	2.856578e+01	7.862474e+02
1.250000e-06	5.676864e-09	3.138048e-09	2.939363e+01	7.978793e+02
1.260000e-06	5.835140e-09	3.180598e-09	3.021315e+01	8.087357e+02
1.270000e-06	5.991742e-09	3.220816e-09	3.102400e+01	8.188761e+02
1.280000e-06	6.146591e-09	3.258213e-09	3.182577e+01	8.283613e+02
1.290000e-06	6.299631e-09	3.293052e-09	3.261818e+01	8.372533e+02
1.300000e-06	6.450827e-09	3.325963e-09	3.340104e+01	8.456115e+02
1.310000e-06	6.600197e-09	3.357043e-09	3.417445e+01	8.534883e+02
1.320000e-06	6.747756e-09	3.386155e-09	3.493849e+01	8.609273e+02
1.330000e-06	6.893469e-09	3.413390e-09	3.569295e+01	8.679632e+02
1.340000e-06	7.037281e-09	3.439287e-09	3.643758e+01	8.746243e+02
1.350000e-06	7.179112e-09	3.464412e-09	3.717196e+01	8.809361e+02
1.360000e-06	7.318877e-09	3.488758e-09	3.789563e+01	8.869234e+02
1.370000e-06	7.456535e-09	3.511871e-09	3.860840e+01	8.926115e+02
1.380000e-06	7.592082e-09	3.533465e-09	3.931023e+01	8.980254e+02
1.390000e-06	7.725562e-09	3.553843e-09	4.000136e+01	9.031873e+02
1.400000e-06	7.856962e-09	3.573394e-09	4.068172e+01	9.081156e+02
1.410000e-06	7.986187e-09	3.591932e-09	4.135082e+01	9.128236e+02
1.420000e-06	8.113212e-09	3.609288e-09	4.200854e+01	9.173205e+02
1.430000e-06	8.238057e-09	3.625597e-09	4.265496e+01	9.216134e+02
1.440000e-06	8.360664e-09	3.640993e-09	4.328979e+01	9.257091e+02
1.450000e-06	8.480906e-09	3.655933e-09	4.391238e+01	9.296162e+02
1.460000e-06	8.598681e-09	3.670824e-09	4.452219e+01	9.333450e+02
1.470000e-06	8.713849e-09	3.685125e-09	4.511851e+01	9.369073e+02
1.480000e-06	8.826334e-09	3.698457e-09	4.570093e+01	9.403142e+02
1.490000e-06	8.936262e-09	3.711217e-09	4.627012e+01	9.435753e+02
1.500000e-06	9.043704e-09	3.723608e-09	4.682643e+01	9.466980e+02
1.510000e-06	9.148537e-09	3.735446e-09	4.736924e+01	9.496879e+02
1.520000e-06	9.250713e-09	3.746733e-09	4.789828e+01	9.525503e+02
1.530000e-06	9.350191e-09	3.757672e-09	4.841336e+01	9.552911e+02
1.540000e-06	9.446846e-09	3.768307e-09	4.891382e+01	9.579184e+02
1.550000e-06	9.540739e-09	3.778848e-09	4.939998e+01	9.604413e+02
1.560000e-06	9.631945e-09	3.789300e-09	4.987223e+01	9.628696e+02
1.570000e-06	9.720402e-09	3.799231e-09	5.033024e+01	9.652114e+02
1.580000e-06	9.806163e-09	3.808518e-09	5.077429e+01	9.674720e+02
1.590000e-06	9.889232e-09	3.817454e-09	5.120441e+01	9.696528e+02
1.600000e-06	9.969445e-09	3.826101e-09	5.161973e+01	9.717524e+02
1.610000e-06	1.004672e-08	3.834229e-09	5.201985e+01	9.737675e+02
1.620000e-06	1.012100e-08	3.842003e-09	5.240444e+01	9.756950e+02
1.630000e-06	1.019233e-08	3.849796e-09	5.277380e+01	9.775335e+02
1.640000e-06	1.026087e-08	3.857508e-09	5.312868e+01	9.792837e+02
1.650000e-06	1.032653e-08	3.864937e-09	5.346865e+01	9.809486e+02
1.660000e-06	1.038932e-08	3.872002e-09	5.379378e+01	9.825319e+02
1.670000e-06	1.044937e-08	3.878547e-09	5.410468e+01	9.840371e+02
1.680000e-06	1.050656e-08	3.884370e-09	5.440082e+01	9.854664e+02
1.690000e-06	1.056078e-08	3.889662e-09	5.468156e+01	9.868203e+02
1.700000e-06	1.061178e-08	3.894904e-09	5.494559e+01	9.880980e+02
1.710000e-06	1.065950e-08	3.899855e-09	5.519267e+01	9.892983e+02
1.720000e-06	1.070429e-08	3.904319e-09	5.542462e+01	9.904199e+02
1.730000e-06	1.074618e-08	3.908490e-09	5.564149e+01	9.914621e+02
1.740000e-06	1.078507e-08	3.912278e-09	5.584287e+01	9.924249e+02
1.750000e-06	1.082109e-08	3.915673e-09	5.602935e+01	9.933082e+02
1.760000e-06	1.085416e-08	3.918817e-09	5.620061e+01	9.941120e+02
1.770000e-06	1.088427e-08	3.921605e-09	5.635650e+01	9.948360e+02
1.780000e-06	1.091143e-08	3.923761e-09	5.649716e+01	9.954791e+02
1.790000e-06	1.093552e-08	3.925630e-09	5.662188e+01	9.960404e+02
1.800000e-06	1.095661e-08	3.927585e-09	5.673108e+01	9.965188e+02
1.810000e-06	1.097472e-08	3.929227e-09	5.682486e+01	9.969132e+02
1.820000e-06	1.098964e-08	3.930360e-09	5.690209e+01	9.972226e+02
1.830000e-06	1.100120e-08	3.931082e-09	5.696196e+01	9.974464e+02
1.840000e-06	1.100943e-08	3.931315e-09	5.700455e+01	9.975850e+02
1.850000e-06	1.101453e-08	3.931169e-09	5.703100e+01	9.976406e+02
1.860000e-06	1.101655e-08	3.930704e-09	5.704145e+01	9.976179e+02
1.870000e-06	1.101547e-08	3.929427e-09	5.703585e+01	9.975252e+02
1.880000e-06	1.101144e-08	3.929294e-09	5.701498e+01	9.973725e+02
1.890000e-06	1.100442e-08	3.929969e-09	5.697862e+01	9.971699e+02
1.900000e-06	1.099436e-08	3.927744e-09	5.692655e+01	9.969239e+02
1.910000e-06	1.098115e-08	3.925355e-09	5.685812e+01	9.966335e+02
1.920000e-06	1.096486e-08	3.925076e-09	5.677379e+01	9.962881e+02
1.930000e-06	1.094588e-08	3.921699e-09	5.667550e+01	9.958685e+02
1.940000e-06	1.092412e-08	3.911561e-09	5.656284e+01	9.953516e+02
1.950000e-06	1.089924e-08	3.916103e-09	5.643402e+01	9.947187e+02
1.960000e-06	1.087060e-08	3.937274e-09	5.628571e+01	9.939649e+02
1.970000e-06	1.083774e-08	3.917296e-09	5.611559e+01	9.931073e+02
1.980000e-06	1.080125e-08	3.889767e-09	5.592666e+01	9.921873e+02
1.990000e-06	1.076204e-08	3.913669e-09	5.572364e+01	9.912663e+02
2.000000e-06	1.072096e-08	3.892168e-09	5.551091e+01	9.904137e+02
2.010000e-06	1.067813e-08	3.874657e-09	5.528914e+01	9.896891e+02
2.020000e-06	1.063250e-08	3.911589e-09	5.505291e+01	9.891251e+02
2.030000e-06	1.058378e-08	3.873391e-09	5.480063e+01	9.887136e+02
2.040000e-06	1.053221e-08	3.869419e-09	5.453360e+01	9.884021e+02
2.050000e-06	1.047720e-08	3.912732e-09	5.424877e+01	9.881012e+02
2.060000e-06	1.041912e-08	3.864416e-09	5.394806e+01	9.877019e+02
2.070000e-06	1.035839e-08	3.866705e-09	5.363364e+01	9.870995e+02
2.080000e-06	1.029467e-08	3.899163e-09	5.330368e+01	9.862162e+02
2.090000e-06	1.022816e-08	3.855437e-09	5.295933e+01	9.850161e+02
2.100000e-06	1.015867e-08	3.855680e-09	5.259953e+01	9.835102e+02
2.110000e-06	1.008608e-08	3.866544e-09	5.222366e+01	9.817476e+02
2.120000e-06	1.001047e-08	3.853072e-09	5.183217e+01	9.797978e+02
2.130000e-06	9.931679e-09	3.841097e-09	5.142419e+01	9.777301e+02
2.140000e-06	9.850143e-09	3.834949e-09	5.100202e+01	9.755945e+02
2.150000e-06	9.765892e-09	3.834166e-09	5.056578e+01	9.734119e+02
2.160000e-06	9.678679e-09	3.803867e-09	5.011422e+01	9.711746e+02
2.170000e-06	9.588686e-09	3.802547e-09	4.964825e+01	9.688554e+02
2.180000e-06	9.495922e-09	3.801673e-09	4.916794e+01	9.664223e+02
2.190000e-06	9.400440e-09	3.787342e-09	4.867355e+01	9.638521e+02
2.200000e-06	9.302225e-09	3.779983e-09	4.816501e+01	9.611387e+02
2.210000e-06	9.201293e-09	3.760055e-09	4.764241e+01	9.582933e+02
2.220000e-06	9.097668e-09	3.755082e-09	4.710586e+01	9.553377e+02
2.230000e-06	8.991298e-09	3.739249e-09	4.655510e+01	9.522935e+02
2.240000e-06	8.882364e-09	3.723943e-09	4.599106e+01	9.491723e+02
2.250000e-06	8.770780e-09	3.714820e-09	4.541330e+01	9.459704e+02
2.260000e-06	8.656449e-09	3.700303e-09	4.482132e+01	9.426702e+02
2.270000e-06	8.539418e-09	3.689839e-09	4.421536e+01	9.392468e+02
2.280000e-06	8.419704e-09	3.676439e-09	4.359550e+01	9.356779e+02
2.290000e-06	8.297551e-09	3.663352e-09	4.296302e+01	9.319509e+02
2.300000e-06	8.173058e-09	3.641824e-09	4.231842e+01	9.280672e+02
2.310000e-06	8.046236e-09	3.625245e-09	4.166176e+01	9.240391e+02
2.320000e-06	7.917195e-09	3.611734e-09	4.099362e+01	9.198830e+02
2.330000e-06	7.786038e-09	3.595389e-09	4.031451e+01	9.156109e+02
2.340000e-06	7.652833e-09	3.579621e-09	3.962480e+01	9.112238e+02
2.350000e-06	7.517481e-09	3.561470e-09	3.892398e+01	9.067099e+02
2.360000e-06	7.379935e-09	3.542343e-09	3.821179e+01	9.020481e+02
2.370000e-06	7.240229e-09	3.521200e-09	3.748842e+01	8.972151e+02
2.380000e-06	7.098474e-09	3.501734e-09	3.675445e+01	8.921930e+02
2.390000e-06	6.954805e-09	3.480159e-09	3.601056e+01	8.869747e+02
2.400000e-06	6.809288e-09	3.458427e-09	3.525710e+01	8.815639e+02
2.410000e-06	6.661962e-09	3.437614e-09	3.449428e+01	8.759706e+02
2.420000e-06	6.512801e-09	3.416223e-09	3.372195e+01	8.702036e+02
2.430000e-06	6.361789e-09	3.393901e-09	3.294004e+01	8.642630e+02
2.440000e-06	6.208969e-09	3.368474e-09	3.214877e+01	8.581368e+02
2.450000e-06	6.054452e-09	3.340727e-09	3.134872e+01	8.518012e+02
2.460000e-06	5.898286e-09	3.313532e-09	3.054012e+01	8.452264e+02
2.470000e-06	5.740459e-09	3.287903e-09	2.972293e+01	8.383846e+02
2.480000e-06	5.580966e-09	3.261307e-09	2.889710e+01	8.312564e+02
2.490000e-06	5.419789e-09	3.232610e-09	2.806257e+01	8.238338e+02
2.500000e-06	5.256953e-09	3.201757e-09	2.721943e+01	8.161189e+02
2.510000e-06	5.092562e-09	3.169684e-09	2.636825e+01	8.081169e+02
2.520000e-06	4.926723e-09	3.136788e-09	2.550957e+01	7.998289e+02
2.530000e-06	4.759471e-09	3.102616e-09	2.464357e+01	7.912455e+02
2.540000e-06	4.590785e-09	3.066682e-09	2.377015e+01	7.823448e+02
2.550000e-06	4.420702e-09	3.029629e-09	2.288949e+01	7.730952e+02
2.560000e-06	4.249295e-09	2.991803e-09	2.200199e+01	7.634621e+02
2.570000e-06	4.076629e-09	2.953264e-09	2.110795e+01	7.534148e+02
2.580000e-06	3.902788e-09	2.912670e-09	2.020784e+01	7.429319e+02
2.590000e-06	3.727838e-09	2.868696e-09	1.930199e+01	7.320005e+02
2.600000e-06	3.551783e-09	2.822624e-09	1.839041e+01	7.206120e+02
2.610000e-06	3.374573e-09	2.775452e-09	1.747285e+01	7.087536e+02
2.620000e-06	3.196209e-09	2.727255e-09	1.654933e+01	6.963996e+02
2.630000e-06	3.016832e-09	2.677271e-09	1.562055e+01	6.835069e+02
2.640000e-06	2.836568e-09	2.624699e-09	1.468718e+01	6.700146e+02
2.650000e-06	2.655501e-09	2.569190e-09	1.374965e+01	6.558498e+02
2.660000e-06	2.473697e-09	2.510772e-09	1.280831e+01	6.409359e+02
2.670000e-06	2.291183e-09	2.449218e-09	1.186329e+01	6.252002e+02
2.680000e-06	2.108038e-09	2.383789e-09	1.091500e+01	6.085785e+02
2.690000e-06	1.924358e-09	2.314196e-09	9.963948e+00	5.910120e+02
2.700000e-06	1.740226e-09	2.240752e-09	9.010549e+00	5.724393e+02
2.710000e-06	1.555686e-09	2.164097e-09	8.055043e+00	5.527848e+02
2.720000e-06	1.370777e-09	2.083529e-09	7.097621e+00	5.319470e+02
2.730000e-06	1.185554e-09	1.996975e-09	6.138571e+00	5.097919e+02
2.740000e-06	1.000055e-09	1.903560e-09	5.178098e+00	4.861540e+02
2.750000e-06	8.143204e-10	1.803718e-09	4.216399e+00	4.608447e+02
2.760000e-06	6.284191e-10	1.697548e-09	3.253839e+00	4.336677e+02
2.770000e-06	4.424354e-10	1.584239e-09	2.290852e+00	4.044370e+02
2.780000e-06	2.564152e-10	1.462433e-09	1.327677e+00	3.729951e+02
2.790000e-06	7.037628e-11	1.331233e-09	3.644048e-01	3.392280e+02
2.800000e-06	-1.156636e-10	1.190260e-09	-5.988723e-01	3.030758e+02
2.810000e-06	-3.016753e-10	1.039392e-09	-1.562004e+00	2.645383e+02
2.820000e-06	-4.876197e-10	8.790298e-10	-2.524787e+00	2.236786e+02
2.830000e-06	-6.734272e-10	7.099035e-10	-3.486861e+00	1.806232e+02
2.840000e-06	-8.590331e-10	5.329481e-10	-4.447891e+00	1.355608e+02
2.850000e-06	-1.044398e-09	3.497344e-10	-5.407675e+00	8.873883e+01
2.860000e-06	-1.229502e-09	1.618557e-10	-6.366105e+00	4.045738e+01
2.870000e-06	-1.414319e-09	-3.063069e-11	-7.323053e+00	-8.941097e+00
2.880000e-06	-1.598783e-09	-2.277873e-10	-8.278169e+00	-5.908473e+01
2.890000e-06	-1.782830e-09	-4.277051e-10	-9.231124e+00	-1.095869e+02
2.900000e-06	-1.966412e-09	-6.275597e-10	-1.018168e+01	-1.600597e+02
2.910000e-06	-2.149483e-09	-8.250903e-10	-1.112958e+01	-2.101240e+02
2.920000e-06	-2.331984e-09	-1.018715e-09	-1.207453e+01	-2.594141e+02
2.930000e-06	-2.513856e-09	-1.207239e-09	-1.301623e+01	-3.075774e+02
2.940000e-06	-2.695045e-09	-1.390023e-09	-1.395438e+01	-3.542716e+02
2.950000e-06	-2.875438e-09	-1.566332e-09	-1.488842e+01	-3.991638e+02
